Index, Current Heading, Target Heading
0, 1.0000, 0.3793, 
1, 1.0000, 0.3794, 
2, 0.9982, 0.3796, 
3, 0.9732, 0.3823, 
4, 0.9327, 0.3805, 
5, 0.8826, 0.3724, 
6, 0.8352, 0.3597, 
7, 0.7745, 0.1542, 
8, 0.6742, 0.3696, 
9, 0.5836, 0.0875, 
10, 0.4820, 0.0124, 
11, 0.3821, 0.1766, 
12, 0.2958, 0.0830, 
13, 0.2189, 0.0313, 
14, 0.1369, 0.1697, 
15, 0.0632, 0.1081, 
16, 0.0058, 0.0530, 
17, -0.0416, 0.0054, 
18, -0.0776, 0.1665, 
19, -0.1025, 0.3408, 
20, -0.1173, 0.3316, 
21, -0.1256, 0.3260, 
22, -0.1302, 0.3211, 
23, -0.1260, 0.3185, 
24, -0.1091, 0.2577, 
25, -0.0835, 0.2614, 
26, -0.0385, 0.2719, 
27, 0.0138, 0.2907, 
28, 0.0727, 0.2572, 
29, 0.1367, 0.2795, 
30, 0.2180, 0.3190, 
31, 0.2779, 0.3550, 
32, 0.3504, 0.3931, 
33, 0.4181, 0.3604, 
34, 0.4861, 0.4029, 
35, 0.5483, 0.2378, 
36, 0.6136, 0.2289, 
37, 0.6570, 0.2603, 
38, 0.6844, 0.2800, 
39, 0.6950, 0.2382, 
40, 0.6936, 0.2427, 
41, 0.6830, 0.2433, 
42, 0.6633, 0.2405, 
43, 0.6344, 0.4463, 
44, 0.6023, 0.4455, 
45, 0.5611, 0.3579, 
46, 0.5209, 0.3494, 
47, 0.4622, 0.1271, 
48, 0.3870, 0.0957, 
49, 0.3080, 0.0406, 
50, 0.2122, 0.2121, 
51, 0.1369, 0.1531, 
52, 0.0815, 0.0928, 
53, 0.0239, 0.0471, 
54, -0.0246, 0.2123, 
55, -0.0569, 0.1820, 
56, -0.0822, 0.3711, 
57, -0.0967, 0.3602, 
58, -0.1022, 0.2832, 
59, -0.0980, 0.2768, 
60, -0.0847, 0.2735, 
61, -0.0577, 0.2745, 
62, -0.0213, 0.2814, 
63, 0.0172, 0.2345, 
64, 0.0540, 0.2462, 
65, 0.0992, 0.2610, 
66, 0.1559, 0.2789, 
67, 0.2284, 0.3198, 
68, 0.3026, 0.2920, 
69, 0.3673, 0.3297, 
70, 0.4396, 0.3761, 
71, 0.5001, 0.4179, 
72, 0.5554, 0.3858, 
73, 0.5887, 0.4127, 
74, 0.6112, 0.4387, 
75, 0.6226, 0.3801, 
76, 0.6249, 0.3947, 
77, 0.6168, 0.4061, 
78, 0.5995, 0.4132, 
79, 0.5754, 0.4169, 
80, 0.5463, 0.3396, 
81, 0.5171, 0.3332, 
82, 0.4845, 0.3266, 
83, 0.4549, 0.3170, 
84, 0.4187, 0.3013, 
85, 0.3826, 0.2824, 
86, 0.3477, 0.2599, 
87, 0.3113, 0.4521, 
88, 0.2793, 0.3551, 
89, 0.2539, 0.3373, 
90, 0.2309, 0.3190, 
91, 0.2136, 0.3048, 
92, 0.2014, 0.2864, 
93, 0.1933, 0.2684, 
94, 0.1907, 0.2549, 
95, 0.1935, 0.3768, 
96, 0.2030, 0.3703, 
97, 0.2197, 0.3668, 
98, 0.2386, 0.3663, 
99, 0.2626, 0.3692, 
100, 0.2895, 0.3068, 
101, 0.3161, 0.3109, 
102, 0.3424, 0.3191, 
103, 0.3845, 0.3380, 
104, 0.4083, 0.2851, 
105, 0.4304, 0.2947, 
106, 0.4480, 0.3028, 
107, 0.4636, 0.3154, 
108, 0.4736, 0.3255, 
109, 0.4772, 0.2689, 
110, 0.4746, 0.2721, 
111, 0.4651, 0.2730, 
112, 0.4502, 0.2709, 
113, 0.4300, 0.2131, 
114, 0.4080, 0.3972, 
115, 0.3815, 0.3933, 
116, 0.3530, 0.3885, 
117, 0.3286, 0.3803, 
118, 0.3011, 0.3735, 
119, 0.2739, 0.2933, 
120, 0.2501, 0.2789, 
121, 0.2302, 0.2668, 
122, 0.2127, 0.2538, 
123, 0.1983, 0.2401, 
124, 0.1875, 0.4326, 
125, 0.1795, 0.4265, 
126, 0.1770, 0.3417, 
127, 0.1804, 0.3353, 
128, 0.1901, 0.3302, 
129, 0.2054, 0.3272, 
130, 0.2294, 0.3279, 
131, 0.2625, 0.2694, 
132, 0.2891, 0.2725, 
133, 0.3131, 0.2786, 
134, 0.3341, 0.2846, 
135, 0.3535, 0.2923, 
136, 0.3780, 0.3033, 
137, 0.3972, 0.2530, 
138, 0.4137, 0.2625, 
139, 0.4278, 0.2696, 
140, 0.4385, 0.2810, 
141, 0.4422, 0.2928, 
142, 0.4363, 0.2424, 
143, 0.4237, 0.2434, 
144, 0.4070, 0.2422, 
145, 0.3862, 0.2369, 
146, 0.3651, 0.4475, 
147, 0.3431, 0.3652, 
148, 0.3217, 0.3616, 
149, 0.2996, 0.3567, 
150, 0.2775, 0.3504, 
151, 0.2561, 0.3428, 
152, 0.2357, 0.3340, 
153, 0.2175, 0.3243, 
154, 0.2019, 0.3107, 
155, 0.1905, 0.2415, 
156, 0.1846, 0.2281, 
157, 0.1848, 0.2156, 
158, 0.1925, 0.4090, 
159, 0.2063, 0.4091, 
160, 0.2251, 0.3358, 
161, 0.2474, 0.3386, 
162, 0.2721, 0.3447, 
163, 0.2963, 0.3518, 
164, 0.3197, 0.3615, 
165, 0.3432, 0.3732, 
166, 0.3669, 0.3125, 
167, 0.3891, 0.3251, 
168, 0.4078, 0.3360, 
169, 0.4268, 0.3500, 
170, 0.4402, 0.2958, 
171, 0.4500, 0.3059, 
172, 0.4529, 0.3147, 
173, 0.4509, 0.3198, 
174, 0.4449, 0.3241, 
175, 0.4349, 0.2623, 
176, 0.4219, 0.2602, 
177, 0.4044, 0.2548, 
178, 0.3865, 0.2482, 
179, 0.3681, 0.2389, 
180, 0.3496, 0.3702, 
181, 0.3286, 0.3647, 
182, 0.3073, 0.3576, 
183, 0.2855, 0.3493, 
184, 0.2651, 0.3393, 
185, 0.2478, 0.3310, 
186, 0.2324, 0.3219, 
187, 0.2211, 0.2519, 
188, 0.2119, 0.2418, 
189, 0.2049, 0.2291, 
190, 0.2023, 0.4160, 
191, 0.2043, 0.4131, 
192, 0.2113, 0.4117, 
193, 0.2229, 0.3366, 
194, 0.2397, 0.3368, 
195, 0.2594, 0.3396, 
196, 0.2856, 0.3462, 
197, 0.3114, 0.3546, 
198, 0.3298, 0.2948, 
199, 0.3471, 0.3001, 
200, 0.3676, 0.3080, 
201, 0.3859, 0.3175, 
202, 0.4037, 0.3276, 
203, 0.4176, 0.2746, 
204, 0.4288, 0.2815, 
205, 0.4371, 0.2883, 
206, 0.4405, 0.2968, 
207, 0.4378, 0.3024, 
208, 0.4295, 0.2462, 
209, 0.4163, 0.2451, 
210, 0.4021, 0.2418, 
211, 0.3866, 0.2359, 
212, 0.3709, 0.4403, 
213, 0.3538, 0.4400, 
214, 0.3357, 0.3581, 
215, 0.3170, 0.3536, 
216, 0.2966, 0.3483, 
217, 0.2781, 0.3416, 
218, 0.2604, 0.3314, 
219, 0.2447, 0.3231, 
220, 0.2337, 0.3138, 
221, 0.2259, 0.3014, 
222, 0.2219, 0.2345, 
223, 0.2225, 0.2233, 
224, 0.2281, 0.4118, 
225, 0.2381, 0.4111, 
226, 0.2502, 0.4129, 
227, 0.2665, 0.4166, 
228, 0.2852, 0.3428, 
229, 0.3085, 0.3495, 
230, 0.3321, 0.3573, 
231, 0.3575, 0.3697, 
232, 0.3833, 0.3128, 
233, 0.4054, 0.3233, 
234, 0.4245, 0.3328, 
235, 0.4400, 0.3454, 
236, 0.4502, 0.2871, 
237, 0.4574, 0.2925, 
238, 0.4604, 0.2963, 
239, 0.4595, 0.2994, 
240, 0.4549, 0.3015, 
241, 0.4461, 0.2421, 
242, 0.4327, 0.2375, 
243, 0.4166, 0.2316, 
244, 0.3976, 0.4323, 
245, 0.3778, 0.4306, 
246, 0.3581, 0.3500, 
247, 0.3373, 0.3429, 
248, 0.3169, 0.3363, 
249, 0.2990, 0.3282, 
250, 0.2818, 0.3220, 
251, 0.2639, 0.3092, 
252, 0.2465, 0.2953, 
253, 0.2354, 0.2839, 
254, 0.2276, 0.2160, 
255, 0.2237, 0.3949, 
256, 0.2240, 0.3907, 
257, 0.2277, 0.3869, 
258, 0.2348, 0.3849, 
259, 0.2445, 0.3844, 
260, 0.2582, 0.3131, 
261, 0.2748, 0.3130, 
262, 0.2923, 0.3159, 
263, 0.3107, 0.3195, 
264, 0.3280, 0.3252, 
265, 0.3455, 0.3323, 
266, 0.3614, 0.2727, 
267, 0.3776, 0.2796, 
268, 0.3918, 0.2872, 
269, 0.4021, 0.2936, 
270, 0.4083, 0.3000, 
271, 0.4115, 0.2458, 
272, 0.4109, 0.2479, 
273, 0.4074, 0.2489, 
274, 0.4010, 0.2487, 
275, 0.3918, 0.2477, 
276, 0.3823, 0.2450, 
277, 0.3721, 0.3806, 
278, 0.3613, 0.3810, 
279, 0.3487, 0.3801, 
280, 0.3235, 0.3776, 
281, 0.3074, 0.3743, 
282, 0.2916, 0.3700, 
283, 0.2784, 0.3644, 
284, 0.2642, 0.2907, 
285, 0.2529, 0.2832, 
286, 0.2453, 0.2730, 
287, 0.2414, 0.2649, 
288, 0.2408, 0.2571, 
289, 0.2437, 0.2496, 
290, 0.2501, 0.2415, 
291, 0.2591, 0.3747, 
292, 0.2694, 0.3753, 
293, 0.2813, 0.3780, 
294, 0.2940, 0.3809, 
295, 0.3056, 0.3869, 
296, 0.3172, 0.3922, 
297, 0.3274, 0.3277, 
298, 0.3371, 0.3324, 
299, 0.3442, 0.3364, 
300, 0.3511, 0.3429, 
301, 0.3558, 0.3484, 
302, 0.3591, 0.3540, 
303, 0.3612, 0.2902, 
304, 0.3625, 0.2920, 
305, 0.3628, 0.2934, 
306, 0.3625, 0.2943, 
307, 0.3617, 0.2949, 
308, 0.3603, 0.2951, 
309, 0.3582, 0.2376, 
310, 0.3552, 0.2356, 
311, 0.3519, 0.2330, 
312, 0.3474, 0.2291, 
313, 0.3422, 0.4322, 
314, 0.3354, 0.4355, 
315, 0.3276, 0.3583, 
316, 0.3184, 0.3575, 
317, 0.3092, 0.3567, 
318, 0.2989, 0.3538, 
319, 0.2893, 0.3510, 
320, 0.2817, 0.3474, 
321, 0.2764, 0.2789, 
322, 0.2728, 0.2743, 
323, 0.2711, 0.2696, 
324, 0.2715, 0.2649, 
325, 0.2741, 0.2595, 
326, 0.2789, 0.2554, 
327, 0.2848, 0.2515, 
328, 0.2926, 0.3853, 
329, 0.3011, 0.3885, 
330, 0.3100, 0.3941, 
331, 0.3181, 0.3996, 
332, 0.3238, 0.4061, 
333, 0.3290, 0.3377, 
334, 0.3321, 0.3412, 
335, 0.3342, 0.3440, 
336, 0.3358, 0.3467, 
337, 0.3371, 0.3494, 
338, 0.3383, 0.3520, 
339, 0.3396, 0.3547, 
340, 0.3411, 0.4661, 
341, 0.3428, 0.4727, 
342, 0.3448, 0.4795, 
343, 0.3468, 0.4853, 
344, 0.3491, 0.4914, 
345, 0.3521, 0.4996, 
346, 0.3566, 0.4162, 
347, 0.3623, 0.4208, 
348, 0.3698, 0.4258, 
349, 0.3794, 0.4316, 
350, 0.3875, 0.4351, 
351, 0.3984, 0.4429, 
352, 0.4104, 0.5321, 
353, 0.4241, 0.5423, 
354, 0.4379, 0.5538, 
355, 0.4536, 0.5659, 
356, 0.4677, 0.5826, 
357, 0.4815, 0.6404, 
358, 0.4932, 0.6533, 
359, 0.5038, 0.6670, 
360, 0.5140, 0.5282, 
361, 0.5247, 0.6983, 
362, 0.5334, 0.7135, 
363, 0.5409, 0.6125, 
364, 0.5492, 0.6207, 
365, 0.5590, 0.7519, 
366, 0.5685, 0.7658, 
367, 0.5792, 0.7804, 
368, 0.5924, 0.6588, 
369, 0.6060, 0.6719, 
370, 0.6197, 0.6826, 
371, 0.6369, 0.6968, 
372, 0.6535, 0.7127, 
373, 0.6726, 0.7292, 
374, 0.6910, 0.7521, 
375, 0.7097, 0.7722, 
376, 0.7265, 0.7937, 
377, 0.7396, 0.8178, 
378, 0.7504, 0.8376, 
379, 0.7610, 0.8583, 
380, 0.7700, 0.7057, 
381, 0.7779, 0.7162, 
382, 0.7842, 0.7243, 
383, 0.7894, 0.7343, 
384, 0.7937, 0.7419, 
385, 0.7974, 0.7493, 
386, 0.8003, 0.7583, 
387, 0.8019, 0.7636, 
388, 0.8027, 0.7706, 
389, 0.8026, 0.7773, 
390, 0.8014, 0.7853, 
391, 0.7992, 0.7915, 
392, 0.7966, 0.7960, 
393, 0.7938, 0.8013, 
394, 0.7904, 0.8052, 
395, 0.7868, 0.8098, 
396, 0.7836, 0.8131, 
397, 0.7801, 0.6560, 
398, 0.7770, 0.6835, 
399, 0.7745, 0.6489, 
400, 0.7729, 0.6447, 
401, 0.7722, 0.6765, 
402, 0.7721, 0.6733, 
403, 0.7722, 0.6707, 
404, 0.7720, 0.6681, 
405, 0.7709, 0.5579, 
406, 0.7683, 0.5528, 
407, 0.7641, 0.5458, 
408, 0.7578, 0.5378, 
409, 0.7514, 0.5329, 
410, 0.7441, 0.5251, 
411, 0.7340, 0.5191, 
412, 0.7228, 0.5097, 
413, 0.7083, 0.4994, 
414, 0.6919, 0.4006, 
415, 0.6739, 0.3873, 
416, 0.6536, 0.3729, 
417, 0.6310, 0.3524, 
418, 0.6083, 0.3349, 
419, 0.5841, 0.3161, 
420, 0.5618, 0.2956, 
421, 0.5369, 0.2671, 
422, 0.5118, 0.2440, 
423, 0.4867, 0.4301, 
424, 0.4606, 0.4120, 
425, 0.4423, 0.3232, 
426, 0.4217, 0.3043, 
427, 0.4001, 0.2848, 
428, 0.3804, 0.2706, 
429, 0.3618, 0.2495, 
430, 0.3424, 0.2281, 
431, 0.3249, 0.4109, 
432, 0.3086, 0.3958, 
433, 0.2936, 0.3809, 
434, 0.2819, 0.3659, 
435, 0.2706, 0.2810, 
436, 0.2620, 0.2640, 
437, 0.2565, 0.2507, 
438, 0.2533, 0.2378, 
439, 0.2526, 0.4258, 
440, 0.2541, 0.4211, 
441, 0.2568, 0.4176, 
442, 0.2601, 0.4155, 
443, 0.2641, 0.5053, 
444, 0.2689, 0.5071, 
445, 0.2744, 0.5099, 
446, 0.2807, 0.5122, 
447, 0.2876, 0.5165, 
448, 0.2953, 0.5216, 
449, 0.3048, 0.5257, 
450, 0.3156, 0.5324, 
451, 0.3295, 0.2652, 
452, 0.3475, 0.2653, 
453, 0.3651, 0.2661, 
454, 0.3844, 0.2695, 
455, 0.4072, 0.2722, 
456, 0.4317, 0.2804, 
457, 0.4510, 0.5061, 
458, 0.4668, 0.2339, 
459, 0.4796, 0.2384, 
460, 0.4885, 0.2444, 
461, 0.4917, 0.2486, 
462, 0.4906, 0.2519, 
463, 0.4848, 0.2038, 
464, 0.4751, 0.5595, 
465, 0.4601, 0.3973, 
466, 0.4427, 0.3987, 
467, 0.4195, 0.3988, 
468, 0.3987, 0.3961, 
469, 0.3764, 0.3913, 
470, 0.3531, 0.3126, 
471, 0.3301, 0.3036, 
472, 0.3095, 0.2933, 
473, 0.2938, 0.2816, 
474, 0.2841, 0.2689, 
475, 0.2779, 0.2593, 
476, 0.2740, 0.4519, 
477, 0.2737, 0.6242, 
478, 0.2760, 0.6256, 
479, 0.2805, 0.3604, 
480, 0.2872, 0.3576, 
481, 0.2950, 0.3553, 
482, 0.3045, 0.3539, 
483, 0.3147, 0.3531, 
484, 0.3270, 0.3533, 
485, 0.3412, 0.3557, 
486, 0.3549, 0.2912, 
487, 0.3678, 0.2925, 
488, 0.3808, 0.5830, 
489, 0.3917, 0.2978, 
490, 0.3998, 0.3021, 
491, 0.4048, 0.3043, 
492, 0.4076, 0.3069, 
493, 0.4094, 0.5197, 
494, 0.4095, 0.2508, 
495, 0.4082, 0.2507, 
496, 0.4053, 0.2502, 
497, 0.4010, 0.2487, 
498, 0.3948, 0.2463, 
499, 0.3881, 0.2427, 
500, 0.3808, 0.4554, 
501, 0.3718, 0.3740, 
502, 0.3627, 0.3731, 
503, 0.3531, 0.3716, 
504, 0.3433, 0.3694, 
505, 0.3343, 0.3677, 
506, 0.3247, 0.3631, 
507, 0.3168, 0.3591, 
508, 0.3109, 0.2891, 
509, 0.3070, 0.2847, 
510, 0.3039, 0.2786, 
511, 0.3024, 0.2741, 
512, 0.3023, 0.2695, 
513, 0.3034, 0.2651, 
514, 0.3057, 0.2596, 
515, 0.3088, 0.2546, 
516, 0.3125, 0.5890, 
517, 0.3155, 0.6500, 
518, 0.3181, 0.6595, 
519, 0.3197, 0.6670, 
520, 0.3205, 0.6780, 
521, 0.3209, 0.6868, 
522, 0.3217, 0.3908, 
523, 0.3236, 0.3917, 
524, 0.3281, 0.3928, 
525, 0.3352, 0.5912, 
526, 0.3450, 0.5970, 
527, 0.3585, 0.6063, 
528, 0.3690, 0.6111, 
529, 0.3846, 0.6194, 
530, 0.4016, 0.6293, 
531, 0.4218, 0.6452, 
532, 0.4426, 0.6637, 
533, 0.4636, 0.5425, 
534, 0.4851, 0.5571, 
535, 0.5073, 0.5730, 
536, 0.5285, 0.5902, 
537, 0.5474, 0.6088, 
538, 0.5671, 0.6280, 
539, 0.5821, 0.6489, 
540, 0.5954, 0.5330, 
541, 0.6071, 0.5467, 
542, 0.6160, 0.5605, 
543, 0.6234, 0.5739, 
544, 0.6278, 0.5838, 
545, 0.6311, 0.5933, 
546, 0.6329, 0.6030, 
547, 0.6339, 0.4845, 
548, 0.6340, 0.4887, 
549, 0.6332, 0.4922, 
550, 0.6317, 0.6824, 
551, 0.6293, 0.6891, 
552, 0.6267, 0.6957, 
553, 0.6225, 0.7041, 
554, 0.6180, 0.7120, 
555, 0.6132, 0.7178, 
556, 0.6087, 0.5851, 
557, 0.6048, 0.5862, 
558, 0.6021, 0.5868, 
559, 0.6007, 0.5870, 
560, 0.6011, 0.5870, 
561, 0.6029, 0.5871, 
562, 0.6061, 0.5872, 
563, 0.6111, 0.5880, 
564, 0.6157, 0.5898, 
565, 0.6199, 0.4654, 
566, 0.6237, 0.6483, 
567, 0.6273, 0.6515, 
568, 0.6305, 0.6536, 
569, 0.6333, 0.6587, 
570, 0.6345, 0.6612, 
571, 0.6348, 0.6667, 
572, 0.6338, 0.6706, 
573, 0.6318, 0.6745, 
574, 0.6290, 0.6780, 
575, 0.6260, 0.5462, 
576, 0.6231, 0.5451, 
577, 0.6207, 0.5436, 
578, 0.6189, 0.5416, 
579, 0.6178, 0.5393, 
580, 0.6177, 0.5368, 
581, 0.6182, 0.5343, 
582, 0.6192, 0.7272, 
583, 0.6203, 0.7303, 
584, 0.6211, 0.7337, 
585, 0.6215, 0.5994, 
586, 0.6212, 0.5996, 
587, 0.6207, 0.5998, 
588, 0.6197, 0.5999, 
589, 0.6185, 0.5998, 
590, 0.6175, 0.5997, 
591, 0.6162, 0.5993, 
592, 0.6153, 0.5986, 
593, 0.6139, 0.5970, 
594, 0.6135, 0.5961, 
595, 0.6134, 0.5951, 
596, 0.6133, 0.6486, 
597, 0.6133, 0.6492, 
598, 0.6134, 0.6500, 
599, 0.6134, 0.6510, 
600, 0.6133, 0.6519, 
601, 0.6132, 0.6529, 
602, 0.6131, 0.6542, 
603, 0.6130, 0.6552, 
604, 0.6132, 0.6562, 
605, 0.6136, 0.6577, 
606, 0.6143, 0.5236, 
607, 0.6152, 0.5212, 
608, 0.6163, 0.5187, 
609, 0.6181, 0.5161, 
610, 0.6197, 0.5143, 
611, 0.6214, 0.7024, 
612, 0.6232, 0.7050, 
613, 0.6244, 0.7069, 
614, 0.6251, 0.7103, 
615, 0.6252, 0.7138, 
616, 0.6244, 0.7176, 
617, 0.6230, 0.7202, 
618, 0.6211, 0.5819, 
619, 0.6191, 0.5811, 
620, 0.6175, 0.5800, 
621, 0.6166, 0.5779, 
622, 0.6170, 0.5762, 
623, 0.6183, 0.5742, 
624, 0.6209, 0.5720, 
625, 0.6240, 0.5704, 
626, 0.6275, 0.7663, 
627, 0.6309, 0.7707, 
628, 0.6337, 0.6308, 
629, 0.6357, 0.6316, 
630, 0.6373, 0.6332, 
631, 0.6386, 0.6348, 
632, 0.6392, 0.6359, 
633, 0.6397, 0.6370, 
634, 0.6398, 0.6385, 
635, 0.6398, 0.6398, 
636, 0.6397, 0.6407, 
637, 0.6396, 0.6418, 
638, 0.6395, 0.6428, 
639, 0.6395, 0.6438, 
640, 0.6397, 0.5103, 
641, 0.6400, 0.5077, 
642, 0.6405, 0.5047, 
643, 0.6411, 0.6889, 
644, 0.6417, 0.6908, 
645, 0.6421, 0.6921, 
646, 0.6422, 0.6942, 
647, 0.6417, 0.6966, 
648, 0.6406, 0.6990, 
649, 0.6388, 0.7016, 
650, 0.6368, 0.7039, 
651, 0.6349, 0.5663, 
652, 0.6332, 0.5645, 
653, 0.6318, 0.5622, 
654, 0.6310, 0.5606, 
655, 0.6308, 0.5579, 
656, 0.6312, 0.5551, 
657, 0.6321, 0.5531, 
658, 0.6335, 0.5496, 
659, 0.6347, 0.7414, 
660, 0.6358, 0.7443, 
661, 0.6363, 0.7478, 
662, 0.6362, 0.7503, 
663, 0.6353, 0.6113, 
664, 0.6337, 0.6114, 
665, 0.6316, 0.6111, 
666, 0.6295, 0.6105, 
667, 0.6275, 0.6100, 
668, 0.6260, 0.6087, 
669, 0.6249, 0.6071, 
670, 0.6245, 0.6055, 
671, 0.6247, 0.6037, 
672, 0.6255, 0.6021, 
673, 0.6265, 0.6010, 
674, 0.6280, 0.6515, 
675, 0.6295, 0.6520, 
676, 0.6304, 0.6524, 
677, 0.6312, 0.6528, 
678, 0.6318, 0.6534, 
679, 0.6321, 0.6544, 
680, 0.6321, 0.6555, 
681, 0.6318, 0.6561, 
682, 0.6313, 0.6568, 
683, 0.6307, 0.6577, 
684, 0.6300, 0.6585, 
685, 0.6296, 0.6589, 
686, 0.6293, 0.6594, 
687, 0.6294, 0.5262, 
688, 0.6299, 0.5233, 
689, 0.6308, 0.5212, 
690, 0.6324, 0.5172, 
691, 0.6342, 0.5140, 
692, 0.6359, 0.7006, 
693, 0.6376, 0.7035, 
694, 0.6386, 0.7051, 
695, 0.6388, 0.7079, 
696, 0.6379, 0.7110, 
697, 0.6361, 0.7142, 
698, 0.6333, 0.7358, 
699, 0.6302, 0.7382, 
700, 0.6278, 0.7397, 
701, 0.6253, 0.7411, 
702, 0.6233, 0.7428, 
703, 0.6221, 0.7443, 
704, 0.6220, 0.7452, 
705, 0.6234, 0.7465, 
706, 0.6258, 0.7482, 
707, 0.6293, 0.7493, 
708, 0.6356, 0.7514, 
709, 0.6424, 0.7544, 
710, 0.6501, 0.7582, 
711, 0.6590, 0.6190, 
712, 0.6685, 0.7728, 
713, 0.6779, 0.7778, 
714, 0.6874, 0.7832, 
715, 0.6960, 0.7894, 
716, 0.7042, 0.7959, 
717, 0.7108, 0.6350, 
718, 0.7166, 0.6374, 
719, 0.7216, 0.6415, 
720, 0.7256, 0.6459, 
721, 0.7296, 0.6870, 
722, 0.7330, 0.6908, 
723, 0.7351, 0.6944, 
724, 0.7367, 0.6968, 
725, 0.7376, 0.7004, 
726, 0.7379, 0.7027, 
727, 0.7377, 0.8496, 
728, 0.7368, 0.8554, 
729, 0.7355, 0.8612, 
730, 0.7338, 0.8651, 
731, 0.7316, 0.8706, 
732, 0.7298, 0.8759, 
733, 0.7284, 0.7365, 
734, 0.7277, 0.7374, 
735, 0.7286, 0.7387, 
736, 0.7310, 0.7396, 
737, 0.7347, 0.7406, 
738, 0.7404, 0.7419, 
739, 0.7466, 0.7436, 
740, 0.7540, 0.7460, 
741, 0.7616, 0.7489, 
742, 0.7692, 0.8966, 
743, 0.7756, 0.9007, 
744, 0.7813, 0.9079, 
745, 0.7857, 0.7648, 
746, 0.7888, 0.7702, 
747, 0.7908, 0.7758, 
748, 0.7918, 0.7793, 
749, 0.7925, 0.7827, 
750, 0.7930, 0.7875, 
751, 0.7934, 0.7921, 
752, 0.7936, 0.7950, 
753, 0.7940, 0.7990, 
754, 0.7946, 0.8017, 
755, 0.7954, 0.8058, 
756, 0.7965, 0.8099, 
757, 0.7979, 0.8047, 
758, 0.7994, 0.8075, 
759, 0.8010, 0.9539, 
760, 0.8026, 0.9598, 
761, 0.8041, 0.9638, 
762, 0.8055, 0.9703, 
763, 0.8075, 0.9792, 
764, 0.8096, 0.9860, 
765, 0.8120, 0.9931, 
766, 0.8153, 1.0031, 
767, 0.8195, 1.0106, 
768, 0.8261, 0.8445, 
769, 0.8323, 0.8493, 
770, 0.8395, 0.8520, 
771, 0.8492, 0.9739, 
772, 0.8573, 0.9779, 
773, 0.8689, 0.9846, 
774, 0.8784, 0.9928, 
775, 0.8882, 0.9981, 
776, 0.8995, 1.0113, 
777, 0.9087, 1.0176, 
778, 0.9182, 1.0328, 
779, 0.9270, 1.0440, 
780, 0.9342, 1.0561, 
781, 0.9410, 1.0729, 
782, 0.9467, 1.0853, 
783, 0.9522, 1.0983, 
784, 0.9584, 1.1160, 
785, 0.9638, 1.1293, 
786, 0.9697, 1.1435, 
787, 0.9764, 1.1636, 
788, 0.9849, 1.1786, 
789, 0.9941, 1.2015, 
790, 1.0033, 1.2201, 
791, 1.0132, 1.2397, 
792, 1.0242, 1.2616, 
793, 1.0351, 1.2760, 
794, 1.0483, 1.3110, 
795, 1.0594, 1.3287, 
796, 1.0738, 1.3580, 
797, 1.0898, 1.4038, 
798, 1.1032, 1.0530, 
799, 1.1149, 1.0585, 
800, 1.1288, 1.0676, 
801, 1.1417, 1.0734, 
802, 1.1552, 1.0839, 
803, 1.1692, 1.0945, 
804, 1.1815, 1.1014, 
805, 1.1921, 1.1140, 
806, 1.2037, 1.1264, 
807, 1.2127, 1.1399, 
808, 1.2199, 1.1532, 
809, 1.2227, 1.1673, 
810, 1.2236, 1.1807, 
811, 1.2214, 1.1940, 
812, 1.2171, 1.0764, 
813, 1.2113, 1.0809, 
814, 1.2058, 1.0841, 
815, 1.2004, 1.0859, 
816, 1.1942, 1.0873, 
817, 1.1890, 1.0877, 
818, 1.1836, 0.7366, 
819, 1.1779, 1.0871, 
820, 1.1739, 1.0855, 
821, 1.1705, 1.0845, 
822, 1.1671, 1.0826, 
823, 1.1634, 0.8372, 
824, 1.1590, 0.8310, 
825, 1.1542, 0.8269, 
826, 1.1478, 0.8175, 
827, 1.1407, 0.8099, 
828, 1.1318, 0.8021, 
829, 1.1221, 0.7933, 
830, 1.1115, 0.7839, 
831, 1.0975, 0.5894, 
832, 1.0803, 0.5726, 
833, 1.0638, 0.7343, 
834, 1.0453, 0.7142, 
835, 1.0243, 0.6914, 
836, 1.0019, 0.6552, 
837, 0.9843, 0.6371, 
838, 0.9661, 0.6178, 
839, 0.9443, 0.5849, 
840, 0.9241, 0.5471, 
841, 0.9020, 0.5078, 
842, 0.8801, 0.2556, 
843, 0.8599, 0.2279, 
844, 0.8388, 0.2006, 
845, 0.8182, 0.1717, 
846, 0.7979, 0.1536, 
847, 0.7764, 0.1250, 
848, 0.7536, 0.0954, 
849, 0.7315, 0.0662, 
850, 0.7067, 0.0360, 
851, 0.6792, 0.0067, 
852, 0.6542, -0.0248, 
853, 0.6226, -0.0549, 
854, 0.5916, 0.1751, 
855, 0.5571, -0.1179, 
856, 0.5250, -0.1376, 
857, 0.4850, -0.1696, 
858, 0.4471, -0.1594, 
859, 0.4080, -0.1856, 
860, 0.3751, -0.0017, 
861, 0.3465, -0.0306, 
862, 0.3164, -0.0478, 
863, 0.2820, -0.0644, 
864, 0.2534, -0.0928, 
865, 0.2214, -0.1215, 
866, 0.1937, -0.1391, 
867, 0.1627, -0.1668, 
868, 0.1384, -0.1961, 
869, 0.1116, -0.0023, 
870, 0.0889, -0.0296, 
871, 0.0707, -0.0604, 
872, 0.0495, -0.0941, 
873, 0.0292, -0.1283, 
874, 0.0105, -0.1615, 
875, -0.0062, -0.1961, 
876, -0.0256, -0.1384, 
877, -0.0392, -0.1584, 
878, -0.0514, -0.1709, 
879, -0.0643, -0.1900, 
880, -0.0755, -0.2023, 
881, -0.0863, -0.2220, 
882, -0.0974, -0.2341, 
883, -0.1084, -0.2529, 
884, -0.1172, -0.3396, 
885, -0.1251, -0.2778, 
886, -0.1337, -0.2902, 
887, -0.1428, -0.4011, 
888, -0.1508, -0.3224, 
889, -0.1612, -0.3414, 
890, -0.1711, -0.3537, 
891, -0.1802, -0.3738, 
892, -0.1896, -0.3091, 
893, -0.2009, -0.3235, 
894, -0.2127, -0.4272, 
895, -0.2230, -0.3482, 
896, -0.2355, -0.4621, 
897, -0.2481, -0.4850, 
898, -0.2608, -0.4996, 
899, -0.2716, -0.1388, 
900, -0.2840, -0.1862, 
901, -0.2946, -0.1538, 
902, -0.3066, -0.1630, 
903, -0.3174, -0.1687, 
904, -0.3280, -0.1785, 
905, -0.3375, -0.1882, 
906, -0.3464, -0.2523, 
